angle,time
0.39532,0.016901254653930664
0.39003,0.031215906143188477
0.38208,0.04674839973449707
0.37159,0.06293272972106934
0.36375,0.08061599731445312
0.35334,0.09712719917297363
0.3404,0.11405491828918457
0.33005,0.13051962852478027
0.31723,0.14809727668762207
0.30447,0.16343069076538086
0.29173,0.18062686920166016
0.2791,0.1962296962738037
0.26397,0.2140061855316162
0.25146,0.23107314109802246
0.23651,0.24762868881225586
0.22159,0.26436805725097656
0.20678,0.28169941902160645
0.19198,0.29824185371398926
0.17484,0.31848669052124023
0.15777,0.3352513313293457
0.14073,0.3513362407684326
0.12378,0.37003016471862793
0.10688,0.3853297233581543
0.08758,0.40164852142333984
0.07077,0.41910314559936523
0.05156,0.436460018157959
0.03242,0.4522664546966553
0.01808,0.4690361022949219
-0.00107,0.4854888916015625
-0.01779,0.5025656223297119
-0.03451,0.5196793079376221
-0.05362,0.5361404418945312
-0.06801,0.5535948276519775
-0.08234,0.5701167583465576
-0.09668,0.5838050842285156
-0.11606,0.6001415252685547
-0.13292,0.6197574138641357
-0.14987,0.6372692584991455
-0.16682,0.6538984775543213
-0.1814,0.6710247993469238
-0.19852,0.687065839767456
-0.21321,0.7056803703308105
-0.22795,0.7206344604492188
-0.2402,0.7375431060791016
-0.25506,0.7536282539367676
-0.27004,0.7710881233215332
-0.28505,0.7872302532196045
-0.29766,0.8056492805480957
-0.31029,0.8218061923980713
-0.32034,0.838242769241333
-0.32802,0.8549768924713135
-0.33573,0.8724231719970703
-0.35127,0.8880884647369385
-0.359,0.905573844909668
-0.36676,0.9223723411560059
-0.37195,0.938385009765625
-0.3772,0.9552183151245117
-0.38242,0.9733741283416748
-0.38764,0.9881653785705566
-0.39026,1.0071618556976318
-0.39288,1.0222580432891846
-0.39288,1.039137363433838
-0.39551,1.0554535388946533
-0.39546,1.072920560836792
-0.39283,1.0886671543121338
-0.39283,1.1074016094207764
-0.38222,1.1225903034210205
-0.37951,1.1406593322753906
-0.37426,1.1560354232788086
-0.36647,1.1738793849945068
-0.35876,1.189936637878418
-0.34845,1.2071630954742432
-0.34085,1.2245149612426758
-0.33834,1.240687370300293
-0.32812,1.2572569847106934
-0.31536,1.2739171981811523
-0.30523,1.2900910377502441
-0.29258,1.3083715438842773
-0.28004,1.3241140842437744
-0.26501,1.340522289276123
-0.25258,1.3572125434875488
-0.23768,1.3744089603424072
-0.22535,1.3906183242797852
-0.21062,1.4074599742889404
-0.18844,1.4243412017822266
-0.17614,1.441619873046875
-0.164,1.458167552947998
-0.15194,1.4756247997283936
-0.13744,1.4915213584899902
-0.12057,1.5089101791381836
-0.10611,1.5247392654418945
-0.08679,1.5435514450073242
-0.0652,1.560204029083252
-0.04006,1.5748088359832764
-0.04006,1.590331792831421
-0.0056,1.6054503917694092
0.00873,1.6225006580352783
0.02545,1.6405763626098633
0.03741,1.657264232635498
0.06143,1.673509120941162
0.0759,1.6896321773529053
0.09032,1.7066278457641602
0.10223,1.722442626953125
0.11669,1.7391679286956787
0.13366,1.7563574314117432
0.14821,1.7732079029083252
0.16285,1.789682388305664
0.17749,1.8057873249053955
0.19465,1.8273422718048096
0.20945,1.8440184593200684
0.22428,1.8610095977783203
0.23917,1.8763840198516846
0.25163,1.892486333847046
0.26418,1.9083845615386963
0.27675,1.9262328147888184
0.28937,1.9450504779815674
0.3021,1.9608728885650635
0.31233,1.9786124229431152
0.32252,1.9934189319610596
0.33284,2.0100677013397217
0.34053,2.0261988639831543
0.34829,2.0423147678375244
0.35607,2.0591094493865967
0.36128,2.07507061958313
0.36649,2.092350959777832
0.37172,2.1072943210601807
0.37434,2.1264352798461914
0.37696,2.141855478286743
0.37959,2.1590774059295654
0.38222,2.175600290298462
0.38217,2.192379951477051
0.37954,2.2093312740325928
0.37954,2.2255778312683105
0.3743,2.2425899505615234
0.37168,2.2600271701812744
0.36645,2.2764081954956055
0.36132,2.2919042110443115
0.35356,2.309467315673828
0.34838,2.3265018463134766
0.33799,2.3437082767486572
0.33022,2.3592967987060547
0.32243,2.3768863677978516
0.31216,2.393367290496826
0.30197,2.411518096923828
0.28924,2.4275424480438232
0.27662,2.4446351528167725
0.26401,2.460554361343384
0.2515,2.478452205657959
0.239,2.4938528537750244
0.22411,2.5116491317749023
0.21175,2.527113914489746
0.19693,2.5443003177642822
0.18222,2.56219744682312
0.16752,2.593775749206543
0.15291,2.631359815597534
0.1383,2.638855218887329
0.12136,2.6398510932922363
0.10688,2.673907518386841
0.08999,2.6810202598571777
0.07557,2.6891236305236816
0.05879,2.7188303470611572
0.04198,2.7279269695281982
0.03007,2.7392969131469727
0.01577,2.756484270095825
0.00383,2.7632102966308594
-0.04006,2.7925894260406494
-0.04006,2.7963626384735107
-0.04007,2.8419837951660156
-0.07754,2.8593084812164307
-0.0992,2.8765997886657715
-0.11847,2.887237548828125
-0.13296,2.904897451400757
-0.14991,2.9143197536468506
-0.16444,2.9318714141845703
-0.17901,2.947094202041626
-0.19363,2.9636242389678955
-0.2059,2.9800148010253906
-0.21816,3.0393455028533936
-0.23293,3.0472285747528076
-0.25773,3.052938938140869
-0.27018,3.0670082569122314
-0.28018,3.0808122158050537
-0.29277,3.0975003242492676
-0.30285,3.114086151123047
-0.31297,3.131702423095703
-0.32058,3.149947166442871
-0.32822,3.164762020111084
-0.33587,3.1812260150909424
-0.34099,3.1990997791290283
-0.34617,3.2151570320129395
-0.35132,3.231250524520874
-0.35647,3.2482798099517822
-0.359,3.265181541442871
-0.36159,3.281456470489502
-0.36417,3.2994983196258545
-0.36417,3.3155620098114014
-0.36417,3.3322389125823975
-0.36159,3.3492517471313477
-0.36159,3.3662593364715576
-0.35637,3.3820064067840576
-0.35379,3.398942708969116
-0.34865,3.416445255279541
-0.34351,3.43218731880188
-0.33834,3.4495866298675537
-0.33067,3.472919225692749
-0.32303,3.491300344467163
-0.31536,3.5083677768707275
-0.30776,3.521073579788208
-0.29514,3.53859543800354
-0.28505,3.555114507675171
-0.27503,3.572305917739868
-0.26252,3.588318109512329
-0.2501,3.6056365966796875
-0.23768,3.623783826828003
-0.22535,3.63981032371521
-0.21303,3.6549832820892334
-0.19834,3.671748161315918
-0.1837,3.688784122467041
-0.1715,3.7063794136047363
-0.15695,3.7225022315979004
-0.1424,3.7407758235931396
-0.12793,3.7563316822052
-0.11349,3.7682952880859375
-0.09663,3.7854371070861816
-0.07985,3.806354284286499
-0.06545,3.82241153717041
-0.0511,3.839906930923462
-0.03434,3.854994058609009
-0.01762,3.872875928878784
-0.00087,3.88922381401062
0.01346,3.90724515914917
0.03023,3.924211263656616
0.04698,3.9391427040100098
0.06139,3.956173896789551
0.07818,3.9734303951263428
0.0926,3.9894962310791016
0.10709,4.006335258483887
0.12157,4.023630619049072
0.13851,4.040875673294067
0.15068,4.05640172958374
0.16529,4.074780464172363
0.17994,4.090622663497925
0.19465,4.1073157787323
0.20694,4.123672723770142
0.21933,4.1411519050598145
0.23419,4.157245874404907
0.24414,4.174042463302612
0.25663,4.19112491607666
0.2692,4.207557916641235
0.27927,4.224749565124512
0.29191,4.242761135101318
0.29952,4.257871627807617
0.3097,4.275297403335571
0.31736,4.292452812194824
0.32509,4.3079938888549805
0.33279,4.325336933135986
0.3379,4.342142820358276
0.34307,4.358502388000488
0.34824,4.376037359237671
0.35084,4.393163681030273
0.35347,4.408953905105591
0.35607,4.4255051612854
0.35607,4.441516399383545
0.35607,4.458891868591309
0.35607,4.476130723953247
0.35343,4.492677450180054
0.35084,4.510267734527588
0.3482,4.526516675949097
0.34561,4.5446083545684814
0.34044,4.560776472091675
0.33528,4.576592922210693
0.32757,4.592919111251831
0.32239,4.609797477722168
0.31471,4.627113103866577
0.30451,4.643969535827637
0.29685,4.660535573959351
0.28672,4.676826000213623
0.27662,4.693366765975952
0.26401,4.712573528289795
0.254,4.72942328453064
0.24148,4.74647331237793
0.22906,4.762008190155029
0.21664,4.778984785079956
0.20431,4.796175241470337
0.18957,4.813354015350342
0.17484,4.829148530960083
0.16264,4.845271110534668
0.14805,4.857726335525513
0.13345,4.878974199295044
0.11894,4.895353078842163
0.10447,4.912206649780273
0.08999,4.92817234992981
0.07557,4.9453654289245605
0.05874,4.9613566398620605
0.04438,4.979370832443237
0.02764,4.995524883270264
0.01326,5.012813568115234
-0.00107,5.029757022857666
-0.01783,5.047440052032471
-0.03216,5.062485694885254
-0.04654,5.080697536468506
-0.06327,5.095848321914673
-0.07763,5.113433361053467
-0.09205,5.130373477935791
-0.10645,5.147312879562378
-0.12092,5.16351056098938
-0.13538,5.181593656539917
-0.14987,5.196707248687744
-0.16197,5.213825941085815
-0.17658,5.230079889297485
-0.18875,5.247257709503174
-0.20096,5.263601064682007
-0.21321,5.277292013168335
-0.22549,5.297332763671875
-0.23786,5.313744306564331
-0.24776,5.330731153488159
-0.26017,5.347312688827515
-0.26764,5.365292549133301
-0.27767,5.380945205688477
-0.2877,5.397580623626709
-0.29524,5.415026426315308
-0.3028,5.430760145187378
-0.31039,5.447668075561523
-0.3155,5.464788436889648
-0.32058,5.481809139251709
-0.32567,5.498450040817261
-0.32817,5.515548229217529
-0.33327,5.531685829162598
-0.33583,5.549411773681641
-0.33583,5.578196287155151
-0.33839,5.598693370819092
-0.33834,5.626856565475464
-0.33834,5.637365102767944
-0.33322,5.69471287727356
-0.32812,5.699650049209595
-0.32044,5.7063071727752686
-0.31536,5.719142198562622
-0.30776,5.7303712368011475
-0.30018,5.746673822402954
-0.29258,5.762799978256226
-0.28505,5.806504249572754
-0.27503,5.848932266235352
-0.2675,5.859315395355225
-0.2451,5.862689733505249
-0.23521,5.868753910064697
-0.22285,5.882751941680908
-0.21303,5.898932695388794
-0.19829,5.9156882762908936
-0.18609,5.932175159454346
-0.17393,5.946675062179565
-0.16175,5.963869333267212
-0.14723,5.9811506271362305
-0.13275,5.999461650848389
-0.12066,6.014559984207153
-0.10624,6.031519889831543
-0.09179,6.04849910736084
-0.07502,6.065316438674927
-0.06067,6.0822999477386475
-0.04633,6.127189874649048
-0.03195,6.132316589355469
-0.01762,6.135700941085815
-0.00325,6.1510984897613525
0.01346,6.166896343231201
0.0278,6.182583332061768
0.04219,6.199777603149414
0.05656,6.216486215591431
0.07098,6.233913898468018
0.08538,6.250439882278442
0.09982,6.266747236251831
0.11432,6.282804012298584
0.12882,6.299770355224609
0.14336,6.316534996032715
0.1555,6.332301139831543
0.17012,6.3532140254974365
0.18239,6.371240139007568
0.1971,6.38972020149231
0.20941,6.409724235534668
0.21928,6.426372766494751
0.23167,6.441346645355225
0.2441,6.45957612991333
0.25408,6.475760459899902
0.26414,6.492773771286011
0.27419,6.508091688156128
0.28427,6.525952577590942
0.29186,6.541003704071045
0.29947,6.559765338897705
0.3071,6.576520204544067
0.3122,6.593139410018921
0.31731,6.610623836517334
0.325,6.626574277877808
0.32757,6.643242359161377
0.33271,6.659415245056152
0.33528,6.678369522094727
0.33528,6.69389271736145
0.33786,6.710119962692261
0.33782,6.727083921432495
0.33782,6.7404069900512695
0.33524,6.76034688949585
0.33524,6.77947211265564
0.33266,6.794175148010254
0.32752,6.81182861328125
0.32239,6.827990531921387
0.31979,6.8446385860443115
0.31212,6.86118745803833
0.30702,6.87932014465332
0.29939,6.89296293258667
0.29178,6.907339572906494
0.28162,6.923120498657227
0.27406,6.940741539001465
0.26401,6.955247640609741
0.254,6.971614360809326
0.24398,6.9877543449401855
0.23154,7.008075475692749
0.22159,7.024777173995972
0.20924,7.041468858718872
0.19693,7.057190895080566
0.18218,7.07576847076416
0.16996,7.090703248977661
0.15773,7.108168363571167
0.14315,7.125
0.13103,7.140795707702637
0.11649,7.158283948898315
0.10202,7.175486326217651
0.08758,7.191894292831421
0.07313,7.209123373031616
0.05874,7.225322008132935
0.04438,7.242527008056641
0.02999,7.258533954620361
0.01565,7.276357650756836
0.00131,7.291673898696899
-0.01305,7.308996915817261
-0.02977,7.325652122497559
-0.04176,7.342882871627808
-0.0561,7.359656095504761
-0.07045,7.376368761062622
-0.08486,7.393290758132935
-0.09925,7.40949273109436
-0.11126,7.426266193389893
-0.12573,7.444434642791748
-0.1402,7.460092782974243
-0.15228,7.477095365524292
-0.1644,7.493831157684326
-0.17901,7.5110249519348145
-0.18875,7.5263142585754395
-0.20096,7.5433669090271
-0.21321,7.560999870300293
-0.22303,7.578521251678467
-0.23539,7.594008207321167
-0.24528,7.6113951206207275
-0.25272,7.6274778842926025
-0.26266,7.645065784454346
-0.27267,7.662588357925415
-0.28018,7.680779218673706
-0.28519,7.696378231048584
-0.29272,7.714741230010986
-0.29776,7.729259252548218
-0.30533,7.747156858444214
-0.30785,7.762804746627808
-0.31292,7.781157732009888
-0.31545,7.796616554260254
-0.31799,7.814300298690796
-0.31799,7.830011606216431
-0.32053,7.848192930221558
-0.32053,7.86399245262146
-0.31794,7.881291389465332
-0.31794,7.897364377975464
-0.31541,7.9136083126068115
-0.31287,7.931111812591553
-0.30781,7.948144197463989
-0.30528,7.964914321899414
-0.30018,7.982111692428589
-0.29263,7.999561548233032
-0.28509,8.015755891799927
-0.28004,8.028469324111938
-0.27004,8.044357776641846
-0.26505,8.061331510543823
-0.25506,8.08052110671997
-0.24514,8.09636402130127
-0.23526,8.113991498947144
-0.22535,8.13110637664795
-0.21552,8.146818161010742
-0.20323,8.163716793060303
-0.19101,8.180833101272583
-0.17879,8.198461055755615
-0.16665,8.214177131652832
-0.15453,8.231047630310059
-0.1424,8.247472286224365
-0.12793,8.26518177986145
-0.11589,8.281017780303955
-0.10143,8.298444271087646
-0.08704,8.314861059188843
-0.07507,8.330995798110962
-0.06067,8.347264051437378
-0.04633,8.365463018417358
-0.03195,8.381126165390015
-0.01762,8.398635625839233
-0.0033,8.415526151657104
0.00869,8.431260108947754
0.02302,8.44870376586914
0.03737,8.465137481689453
0.05177,8.48281979560852
0.06614,8.500709772109985
0.08054,8.515494346618652
0.0926,8.53261947631836
0.10704,8.550880908966064
0.12152,8.566486835479736
0.13366,8.58302092552185
0.14578,8.600685358047485
0.16037,8.617201328277588
0.17257,8.63489031791687
0.18479,8.650827646255493
0.19706,8.667376041412354
0.2069,8.683373928070068
0.21928,8.701375007629395
0.22919,8.717330694198608
0.23912,8.737760782241821
0.24909,8.75275707244873
0.25909,8.768925428390503
0.26661,8.78624963760376
0.27415,8.8033766746521
0.28171,8.819863319396973
0.28929,8.838396787643433
0.29435,8.853083848953247
0.29943,8.87128758430481
0.30451,8.886409521102905
0.30961,8.90434455871582
0.31216,8.922327041625977
0.31471,8.938465595245361
0.31727,8.954178810119629
0.31727,8.970309734344482
0.31723,8.988325119018555
0.31723,9.004605770111084
0.31723,9.020959615707397
0.31467,9.038957357406616
0.31212,9.053845405578613
0.30957,9.071686267852783
0.30443,9.084604263305664
0.29934,9.10277533531189
0.29427,9.116515398025513
0.2892,9.137265682220459
0.28162,9.153247833251953
0.27402,9.17108154296875
0.26648,9.186336278915405
0.25896,9.204654455184937
0.24896,9.220197677612305
0.23895,9.23629355430603
0.22902,9.253437042236328
0.21912,9.271097421646118
0.20673,9.287059307098389
0.19689,9.30514907836914
0.18463,9.321152448654175
0.17236,9.338361978530884
0.16017,9.35434103012085
0.14801,9.372026920318604
0.13584,9.38822603225708
0.12132,9.404857873916626
0.10925,9.42167615890503
0.0948,9.43852424621582
0.08278,9.454886674880981
0.06833,9.472306251525879
0.05635,9.488102436065674
0.04198,9.505243062973022
0.02759,9.52190375328064
0.01326,9.539556980133057
0.00131,9.555533170700073
-0.01305,9.572447061538696
-0.02738,9.589152574539185
-0.03933,9.606319427490234
-0.05371,9.622809648513794
-0.06806,9.639115810394287
-0.08003,9.65653681755066
-0.09441,9.674282789230347
-0.10641,9.690173864364624
-0.12088,9.706161260604858
-0.13292,9.723216533660889
-0.14499,9.741241216659546
-0.15708,9.756414890289307
-0.16925,9.77348256111145
-0.17897,9.79082703590393
-0.19115,9.808210372924805
-0.20092,9.824024200439453
-0.21071,9.841361045837402
-0.22053,9.857346773147583
-0.23042,9.874756336212158
-0.24029,9.89026165008545
-0.24771,9.908109426498413
-0.25515,9.924288749694824
-0.26261,9.941642999649048
-0.27009,9.958446502685547
-0.27508,9.977231979370117
-0.28008,9.993124961853027
-0.28509,10.011093854904175
-0.29012,10.026236295700073
-0.29263,10.04398488998413
-0.29766,10.060376167297363
-0.29766,10.078037023544312
-0.30018,10.095011711120605
-0.30018,10.111588954925537
-0.30018,10.127301692962646
-0.30018,10.145891427993774
-0.29762,10.161059856414795
-0.29762,10.174520015716553
-0.29258,10.189323663711548
-0.29007,10.20949912071228
-0.28505,10.225845336914062
-0.28249,10.24384593963623
-0.27499,10.260304689407349
-0.26999,10.276463031768799
-0.26252,10.293516874313354
-0.25501,10.311013460159302
-0.24757,10.326400518417358
-0.24015,10.344371557235718
-0.23028,10.359655857086182
-0.22285,10.376790046691895
-0.21303,10.393931150436401
-0.20323,10.412022113800049
-0.19097,10.427248239517212
-0.18122,10.444674968719482
-0.16907,10.460938692092896
-0.15691,10.47743558883667
-0.14723,10.494971752166748
-0.13516,10.512099504470825
-0.12066,10.527343988418579
-0.10864,10.545119762420654
-0.09663,10.562052011489868
-0.08221,10.57827353477478
-0.07024,10.594677686691284
-0.05828,10.611450433731079
-0.04389,10.629190921783447
-0.02956,10.645652532577515
-0.01523,10.662013292312622
-0.00325,10.679755926132202
0.00869,10.696341037750244
0.02302,10.711545705795288
0.03497,10.728870868682861
0.04937,10.745275735855103
0.06374,10.7622549533844
0.07574,10.779930353164673
0.08775,10.796324253082275
0.10223,10.81340503692627
0.11428,10.829507112503052
0.12394,10.84740161895752
0.13847,10.862857341766357
0.14817,10.880858898162842
0.16277,10.897130250930786
0.17252,10.912968635559082
0.1823,10.930368423461914
0.19456,10.947177410125732
0.2044,10.963663101196289
0.2143,10.978516817092896
0.22419,10.996893644332886
0.23411,11.013123273849487
0.24157,11.027782678604126
0.24905,11.045471906661987
0.25654,11.060239553451538
0.26406,11.077274799346924
0.26908,11.094042301177979
0.27662,11.113983154296875
0.28166,11.131334781646729
0.28419,11.148192167282104
0.28929,11.164201021194458
0.29182,11.182775735855103
0.29431,11.196667432785034
0.29431,11.212711572647095
0.29685,11.228927850723267
0.29685,11.244911670684814
0.29685,11.261088371276855
0.29431,11.282146215438843
0.29427,11.299098253250122
0.29173,11.31675100326538
0.2892,11.332287311553955
0.28415,11.349637031555176
0.2791,11.365759372711182
0.27654,11.383088827133179
0.26899,11.400049686431885
0.26393,11.416692018508911
0.25642,11.433221817016602
0.24892,11.45108699798584
0.24144,11.466671466827393
0.23394,11.484641313552856
0.22402,11.500027179718018
0.21413,11.518163442611694
0.20427,11.533498764038086
0.19444,11.55073595046997
0.18459,11.5673668384552
0.17236,11.584300756454468
0.1626,11.602061986923218
0.15044,11.61829686164856
0.13826,11.635053873062134
0.12615,11.652316093444824
0.11407,11.667358160018921
0.10447,11.685532331466675
0.09484,11.70197343826294
0.08286,11.718600511550903
0.07325,11.734970808029175
0.05887,11.751688241958618
0.04446,11.768750190734863
0.0325,11.78633999824524
0.01812,11.80138874053955
0.00617,11.819925308227539
-0.00815,11.835450172424316
-0.02009,11.853512048721313
-0.03446,11.869369268417358
-0.04641,11.886138677597046
-0.05836,11.90274691581726
-0.07271,11.920424699783325
-0.08473,11.936053276062012
-0.09676,11.953093528747559
-0.11117,11.970854759216309
-0.1232,11.98625111579895
-0.13529,12.003307342529297
-0.14736,12.020222663879395
-0.1595,12.03755497932434
-0.17163,12.0538170337677
-0.18136,12.071122169494629
-0.1911,12.087270021438599
-0.20087,12.104161977767944
-0.21071,12.121405839920044
-0.22048,12.138084173202515
-0.22791,12.15526032447815
-0.2353,12.170990943908691
-0.24272,12.187268257141113
-0.25014,12.204649686813354
-0.25759,12.220808267593384
-0.26256,12.237257480621338
-0.26755,12.2556631565094
-0.27254,12.271955013275146
-0.27753,12.286649942398071
-0.28004,12.301064729690552
-0.28254,12.321709394454956
-0.28505,12.33936333656311
-0.28505,12.35648798942566
-0.28505,12.373392343521118
-0.28756,12.388933897018433
-0.285,12.405464172363281
-0.285,12.423694849014282
-0.28249,12.439718008041382
-0.27999,12.456062316894531
-0.27749,12.472893953323364
-0.27249,12.491098642349243
-0.26745,12.505996704101562
-0.26247,12.524561166763306
-0.2575,12.539129972457886
-0.25001,12.556236743927002
-0.24258,12.573904037475586
-0.23517,12.589488744735718
-0.22526,12.606389284133911
